EC-Lab ASCII FILE
Nb header lines : 46                          

Open Circuit Voltage

Run on channel : 1 (SN 39219)
User : 
CE vs. WE compliance from -10 V to 10 V
Electrode connection : standard
Ewe ctrl range : min = 0.00 V, max = 5.00 V
Safety Limits :
	Do not start on E overload
Acquisition started on : 10/18/2022 11:10:26.788
Technique started on : 10/18/2022 11:10:26.788
Loaded Setting File :  D:\EC-Lab\Faraday\Graphite vs Li\EC096\EC096 LP57 + CO2.mps
Saved on :
	File : EC098_EC_Free_CO2_01_OCV_C01.mpr
	Directory : D:\EC-Lab\Faraday\Graphite vs Li\EC098\
	Host : 192.109.209.130
Device : SP-150 (SN 1485)
Address : 192.109.209.135
EC-Lab for windows v11.36 (software)
Internet server v11.36 (firmware)
Command interpretor v11.36 (firmware)
Electrode material : Au/Pd
Initial state : 
Electrolyte : NaCl (0.2M)
Comments : Fe(CN)63-/Fe(CN)64- 5.10-3 M
Reference electrode : SCE Saturated Calomel Electrode (0.241 V)
Electrode surface area : 0.001 cm²
Characteristic mass : 0.001 g
Equivalent Weight : 0.000 g/eq.
Density : 0.000 g/cm3
Text export
   Mode : Standard
   Time format : Elapsed
Cycle Definition : Charge/Discharge alternance
tR (h:m:s)          1:00:0.0000         
dER/dt (mV/h)       0.0                 
record              Ewe                 
dER (mV)            0.00                
dtR (s)             10.0000             
E range min (V)     0.000               
E range max (V)     5.000               

mode	error	time/s	Ewe/V	
3	0	0.000000000000000E+000	2.7352457E+000
3	0	9.999999747378752E+000	2.7351692E+000
3	0	1.999999949475750E+001	2.7351692E+000
3	0	2.999999924213625E+001	2.7350738E+000
3	0	3.999999898951501E+001	2.7350929E+000
3	0	4.999999873689376E+001	2.7349591E+000
3	0	5.999999848427251E+001	2.7349591E+000
3	0	6.999999823165126E+001	2.7349782E+000
3	0	7.999999797903001E+001	2.7348447E+000
3	0	8.999999772640876E+001	2.7349401E+000
3	0	9.999999747378752E+001	2.7349973E+000
3	0	1.099999972211663E+002	2.7349973E+000
3	0	1.199999969685450E+002	2.7349401E+000
3	0	1.299999967159238E+002	2.7350929E+000
3	0	1.399999964633025E+002	2.7351310E+000
3	0	1.499999962106813E+002	2.7353983E+000
3	0	1.599999959580600E+002	2.7355130E+000
3	0	1.699999957054388E+002	2.7355893E+000
3	0	1.799999954528175E+002	2.7356656E+000
3	0	1.899999952001963E+002	2.7359712E+000
3	0	1.999999949475750E+002	2.7360284E+000
3	0	2.099999946949538E+002	2.7362576E+000
3	0	2.199999944423325E+002	2.7362766E+000
3	0	2.299999941897113E+002	2.7364867E+000
3	0	2.399999939370900E+002	2.7365820E+000
3	0	2.499999936844688E+002	2.7368495E+000
3	0	2.599999934318475E+002	2.7370977E+000
3	0	2.699999931792263E+002	2.7372696E+000
3	0	2.799999929266050E+002	2.7373078E+000
3	0	2.899999926739838E+002	2.7377279E+000
3	0	2.999999924213625E+002	2.7379186E+000
3	0	3.099999921687413E+002	2.7380142E+000
3	0	3.199999919161201E+002	2.7382624E+000
3	0	3.299999916634988E+002	2.7385869E+000
3	0	3.399999914108776E+002	2.7386634E+000
3	0	3.499999911582563E+002	2.7388735E+000
3	0	3.599999909056351E+002	2.7390451E+000
3	0	3.699999906530138E+002	2.7393317E+000
3	0	3.799999904003926E+002	2.7394652E+000
3	0	3.899999901477713E+002	2.7395990E+000
3	0	3.999999898951501E+002	2.7398472E+000
3	0	4.099999896425288E+002	2.7399426E+000
3	0	4.199999893899076E+002	2.7401907E+000
3	0	4.299999891372863E+002	2.7402673E+000
3	0	4.399999888846651E+002	2.7405155E+000
3	0	4.499999886320438E+002	2.7406299E+000
3	0	4.599999883794226E+002	2.7408400E+000
3	0	4.699999881268013E+002	2.7408590E+000
3	0	4.799999878741801E+002	2.7410119E+000
3	0	4.899999876215588E+002	2.7412219E+000
3	0	4.999999873689376E+002	2.7414129E+000
3	0	5.099999871163163E+002	2.7414701E+000
3	0	5.199999868636951E+002	2.7416229E+000
3	0	5.299999866110738E+002	2.7417758E+000
3	0	5.399999863584526E+002	2.7418711E+000
3	0	5.499999861058313E+002	2.7419474E+000
3	0	5.599999858532101E+002	2.7421956E+000
3	0	5.699999856005888E+002	2.7421765E+000
3	0	5.799999853479676E+002	2.7424440E+000
3	0	5.899999850953463E+002	2.7423675E+000
3	0	5.999999848427251E+002	2.7425203E+000
3	0	6.099999845901039E+002	2.7427685E+000
3	0	6.199999843374826E+002	2.7427113E+000
3	0	6.299999840848614E+002	2.7429595E+000
3	0	6.399999838322401E+002	2.7431121E+000
3	0	6.499999835796189E+002	2.7430739E+000
3	0	6.599999833269976E+002	2.7433031E+000
3	0	6.699999830743764E+002	2.7435513E+000
3	0	6.799999828217551E+002	2.7436087E+000
3	0	6.899999825691339E+002	2.7437041E+000
3	0	6.999999823165126E+002	2.7437997E+000
3	0	7.099999820638914E+002	2.7441432E+000
3	0	7.199999818112701E+002	2.7443342E+000
3	0	7.299999815586489E+002	2.7443342E+000
3	0	7.399999813060276E+002	2.7444870E+000
3	0	7.499999810534064E+002	2.7447543E+000
3	0	7.599999808007851E+002	2.7447162E+000
3	0	7.699999805481639E+002	2.7449644E+000
3	0	7.799999802955426E+002	2.7449453E+000
3	0	7.899999800429214E+002	2.7450979E+000
3	0	7.999999797903001E+002	2.7451935E+000
3	0	8.099999795376789E+002	2.7452507E+000
3	0	8.199999792850576E+002	2.7453079E+000
3	0	8.299999790324364E+002	2.7454798E+000
3	0	8.399999787798151E+002	2.7455180E+000
3	0	8.499999785271939E+002	2.7457662E+000
3	0	8.599999782745726E+002	2.7457089E+000
3	0	8.699999780219514E+002	2.7457471E+000
3	0	8.799999777693301E+002	2.7458618E+000
3	0	8.899999775167089E+002	2.7459190E+000
3	0	8.999999772640876E+002	2.7461672E+000
3	0	9.099999770114664E+002	2.7462626E+000
3	0	9.199999767588452E+002	2.7463772E+000
3	0	9.299999765062239E+002	2.7463582E+000
3	0	9.399999762536027E+002	2.7463772E+000
3	0	9.499999760009814E+002	2.7465301E+000
3	0	9.599999757483602E+002	2.7465110E+000
3	0	9.699999754957389E+002	2.7466063E+000
3	0	9.799999752431177E+002	2.7465873E+000
3	0	9.899999749904964E+002	2.7466636E+000
3	0	9.999999747378752E+002	2.7469118E+000
3	0	1.009999974485254E+003	2.7470074E+000
3	0	1.019999974232633E+003	2.7469692E+000
3	0	1.029999973980011E+003	2.7471218E+000
3	0	1.039999973727390E+003	2.7470837E+000
3	0	1.049999973474769E+003	2.7472174E+000
3	0	1.059999973222148E+003	2.7472746E+000
3	0	1.069999972969526E+003	2.7475801E+000
3	0	1.079999972716905E+003	2.7476375E+000
3	0	1.089999972464284E+003	2.7480192E+000
3	0	1.099999972211663E+003	2.7481339E+000
3	0	1.109999971959041E+003	2.7482102E+000
3	0	1.119999971706420E+003	2.7482102E+000
3	0	1.129999971453799E+003	2.7484012E+000
3	0	1.139999971201178E+003	2.7488594E+000
3	0	1.149999970948556E+003	2.7489357E+000
3	0	1.159999970695935E+003	2.7491267E+000
3	0	1.169999970443314E+003	2.7493176E+000
3	0	1.179999970190693E+003	2.7493176E+000
3	0	1.189999969938071E+003	2.7495086E+000
3	0	1.199999969685450E+003	2.7495658E+000
3	0	1.209999969432829E+003	2.7496040E+000
3	0	1.219999969180208E+003	2.7497759E+000
3	0	1.229999968927586E+003	2.7498522E+000
3	0	1.239999968674965E+003	2.7500622E+000
3	0	1.249999968422344E+003	2.7503297E+000
3	0	1.259999968169723E+003	2.7505779E+000
3	0	1.269999967917101E+003	2.7508833E+000
3	0	1.279999967664480E+003	2.7509596E+000
3	0	1.289999967411859E+003	2.7511888E+000
3	0	1.299999967159238E+003	2.7514753E+000
3	0	1.309999966906616E+003	2.7515707E+000
3	0	1.319999966653995E+003	2.7517426E+000
3	0	1.329999966401374E+003	2.7519145E+000
3	0	1.339999966148753E+003	2.7520480E+000
3	0	1.349999965896131E+003	2.7522390E+000
3	0	1.359999965643510E+003	2.7524109E+000
3	0	1.369999965390889E+003	2.7525637E+000
3	0	1.379999965138268E+003	2.7527735E+000
3	0	1.389999964885646E+003	2.7529454E+000
3	0	1.399999964633025E+003	2.7530982E+000
3	0	1.409999964380404E+003	2.7534418E+000
3	0	1.419999964127783E+003	2.7534037E+000
3	0	1.429999963875161E+003	2.7536902E+000
3	0	1.439999963622540E+003	2.7539384E+000
3	0	1.449999963369919E+003	2.7539766E+000
3	0	1.459999963117298E+003	2.7541866E+000
3	0	1.469999962864676E+003	2.7544730E+000
3	0	1.479999962612055E+003	2.7546258E+000
3	0	1.489999962359434E+003	2.7549121E+000
3	0	1.499999962106813E+003	2.7550459E+000
3	0	1.509999961854192E+003	2.7554467E+000
3	0	1.519999961601570E+003	2.7556758E+000
3	0	1.529999961348949E+003	2.7560005E+000
3	0	1.539999961096328E+003	2.7563250E+000
3	0	1.549999960843707E+003	2.7566116E+000
3	0	1.559999960591085E+003	2.7569361E+000
3	0	1.569999960338464E+003	2.7572989E+000
3	0	1.579999960085843E+003	2.7575088E+000
3	0	1.589999959833222E+003	2.7575853E+000
3	0	1.599999959580600E+003	2.7579672E+000
3	0	1.609999959327979E+003	2.7581770E+000
3	0	1.619999959075358E+003	2.7581007E+000
3	0	1.629999958822737E+003	2.7584255E+000
3	0	1.639999958570115E+003	2.7584062E+000
3	0	1.649999958317494E+003	2.7585399E+000
3	0	1.659999958064873E+003	2.7585208E+000
3	0	1.669999957812252E+003	2.7586927E+000
3	0	1.679999957559630E+003	2.7588072E+000
3	0	1.689999957307009E+003	2.7589600E+000
3	0	1.699999957054388E+003	2.7591891E+000
3	0	1.709999956801767E+003	2.7590363E+000
3	0	1.719999956549145E+003	2.7585018E+000
3	0	1.729999956296524E+003	2.7578526E+000
3	0	1.739999956043903E+003	2.7572033E+000
3	0	1.749999955791282E+003	2.7568979E+000
3	0	1.759999955538660E+003	2.7564778E+000
3	0	1.769999955286039E+003	2.7561724E+000
3	0	1.779999955033418E+003	2.7557523E+000
3	0	1.789999954780797E+003	2.7552176E+000
3	0	1.799999954528175E+003	2.7544920E+000
3	0	1.809999954275554E+003	2.7537284E+000
3	0	1.819999954022933E+003	2.7526019E+000
3	0	1.829999953770312E+003	2.7517426E+000
3	0	1.839999953517690E+003	2.7507880E+000
3	0	1.849999953265069E+003	2.7497759E+000
3	0	1.859999953012448E+003	2.7489548E+000
3	0	1.869999952759827E+003	2.7478092E+000
3	0	1.879999952507205E+003	2.7468355E+000
3	0	1.889999952254584E+003	2.7459381E+000
3	0	1.899999952001963E+003	2.7449644E+000
3	0	1.909999951749342E+003	2.7439713E+000
3	0	1.919999951496720E+003	2.7427304E+000
3	0	1.929999951244099E+003	2.7421002E+000
3	0	1.939999950991478E+003	2.7411265E+000
3	0	1.949999950738857E+003	2.7401526E+000
3	0	1.959999950486235E+003	2.7392361E+000
3	0	1.969999950233614E+003	2.7384915E+000
3	0	1.979999949980993E+003	2.7377660E+000
3	0	1.989999949728372E+003	2.7370403E+000
3	0	1.999999949475750E+003	2.7361813E+000
3	0	2.009999949223129E+003	2.7354555E+000
3	0	2.019999948970508E+003	2.7347109E+000
3	0	2.029999948717887E+003	2.7339473E+000
3	0	2.039999948465265E+003	2.7334125E+000
3	0	2.049999948212644E+003	2.7324388E+000
3	0	2.059999947960023E+003	2.7321143E+000
3	0	2.069999947707402E+003	2.7312360E+000
3	0	2.079999947454780E+003	2.7304721E+000
3	0	2.089999947202159E+003	2.7298613E+000
3	0	2.099999946949538E+003	2.7292883E+000
3	0	2.109999946696917E+003	2.7286963E+000
3	0	2.119999946444295E+003	2.7281427E+000
3	0	2.129999946191674E+003	2.7274363E+000
3	0	2.139999945939053E+003	2.7270734E+000
3	0	2.149999945686432E+003	2.7265389E+000
3	0	2.159999945433810E+003	2.7259851E+000
3	0	2.169999945181189E+003	2.7255459E+000
3	0	2.179999944928568E+003	2.7249541E+000
3	0	2.189999944675947E+003	2.7245531E+000
3	0	2.199999944423325E+003	2.7242477E+000
3	0	2.209999944170704E+003	2.7236176E+000
3	0	2.219999943918083E+003	2.7231784E+000
3	0	2.229999943665462E+003	2.7228920E+000
3	0	2.239999943412840E+003	2.7224145E+000
3	0	2.249999943160219E+003	2.7220137E+000
3	0	2.259999942907598E+003	2.7215364E+000
3	0	2.269999942654977E+003	2.7212498E+000
3	0	2.279999942402355E+003	2.7208488E+000
3	0	2.289999942149734E+003	2.7205625E+000
3	0	2.299999941897113E+003	2.7199898E+000
3	0	2.309999941644492E+003	2.7195697E+000
3	0	2.319999941391870E+003	2.7193024E+000
3	0	2.329999941139249E+003	2.7188823E+000
3	0	2.339999940886628E+003	2.7186151E+000
3	0	2.349999940634007E+003	2.7183094E+000
3	0	2.359999940381385E+003	2.7180803E+000
3	0	2.369999940128764E+003	2.7177367E+000
3	0	2.379999939876143E+003	2.7174120E+000
3	0	2.389999939623522E+003	2.7171447E+000
3	0	2.399999939370900E+003	2.7169728E+000