EC-Lab ASCII FILE
Nb header lines : 46                          

Open Circuit Voltage

Run on channel : 1 (SN 39219)
User : 
CE vs. WE compliance from -10 V to 10 V
Electrode connection : standard
Ewe ctrl range : min = 0.00 V, max = 5.00 V
Safety Limits :
	Do not start on E overload
Acquisition started on : 10/18/2022 11:10:26.788
Technique started on : 10/18/2022 15:00:00.797
Loaded Setting File :  D:\EC-Lab\Faraday\Graphite vs Li\EC096\EC096 LP57 + CO2.mps
Saved on :
	File : EC098_EC_Free_CO2_03_OCV_C01.mpr
	Directory : D:\EC-Lab\Faraday\Graphite vs Li\EC098\
	Host : 192.109.209.130
Device : SP-150 (SN 1485)
Address : 192.109.209.135
EC-Lab for windows v11.36 (software)
Internet server v11.36 (firmware)
Command interpretor v11.36 (firmware)
Electrode material : Au/Pd
Initial state : 
Electrolyte : NaCl (0.2M)
Comments : Fe(CN)63-/Fe(CN)64- 5.10-3 M
Reference electrode : SCE Saturated Calomel Electrode (0.241 V)
Electrode surface area : 0.001 cm²
Characteristic mass : 0.001 g
Equivalent Weight : 0.000 g/eq.
Density : 0.000 g/cm3
Text export
   Mode : Standard
   Time format : Elapsed
Cycle Definition : Charge/Discharge alternance
tR (h:m:s)          1:00:0.0000         
dER/dt (mV/h)       0.0                 
record              Ewe                 
dER (mV)            0.00                
dtR (s)             10.0000             
E range min (V)     0.000               
E range max (V)     5.000               

mode	error	time/s	Ewe/V	
3	0	1.377400877935279E+004	2.7132115E+000
3	0	1.378400877923172E+004	2.5727770E+000
3	0	1.379400877911065E+004	2.5134912E+000
3	0	1.380400877898958E+004	2.4753609E+000
3	0	1.381400877886851E+004	2.4474840E+000
3	0	1.382400877874743E+004	2.4255455E+000
3	0	1.383400877862636E+004	2.4077308E+000
3	0	1.384400877850529E+004	2.3925323E+000
3	0	1.385400877838422E+004	2.3794341E+000
3	0	1.386400877826315E+004	2.3678632E+000
3	0	1.387400877814207E+004	2.3575907E+000
3	0	1.388400877802100E+004	2.3484449E+000
3	0	1.389400877789993E+004	2.3401392E+000
3	0	1.390400877777886E+004	2.3323298E+000
3	0	1.391400877765779E+004	2.3252652E+000
3	0	1.392400877753671E+004	2.3187542E+000
3	0	1.393400877741564E+004	2.3126824E+000
3	0	1.394400877729457E+004	2.3070307E+000
3	0	1.395400877717350E+004	2.3017416E+000
3	0	1.396400877705243E+004	2.2967010E+000
3	0	1.397400877693135E+004	2.2921183E+000
3	0	1.398400877681028E+004	2.2877078E+000
3	0	1.399400877668921E+004	2.2832398E+000
3	0	1.400400877656814E+004	2.2793064E+000
3	0	1.401400877644707E+004	2.2754686E+000
3	0	1.402400877632599E+004	2.2717073E+000
3	0	1.403400877620492E+004	2.2683084E+000
3	0	1.404400877608385E+004	2.2650626E+000
3	0	1.405400877596278E+004	2.2619121E+000
3	0	1.406400877584171E+004	2.2588954E+000
3	0	1.407400877572063E+004	2.2558212E+000
3	0	1.408400877559956E+004	2.2530336E+000
3	0	1.409400877547849E+004	2.2504559E+000
3	0	1.410400877535742E+004	2.2477064E+000
3	0	1.411400877523635E+004	2.2452242E+000
3	0	1.412400877511528E+004	2.2428184E+000
3	0	1.413400877499420E+004	2.2406034E+000
3	0	1.414400877487313E+004	2.2380450E+000
3	0	1.415400877475206E+004	2.2361355E+000
3	0	1.416400877463099E+004	2.2339590E+000
3	0	1.417400877450992E+004	2.2318969E+000
3	0	1.418400877438884E+004	2.2298346E+000
3	0	1.419400877426777E+004	2.2279825E+000
3	0	1.420400877414670E+004	2.2262259E+000
3	0	1.421400877402563E+004	2.2244501E+000
3	0	1.422400877390456E+004	2.2224836E+000
3	0	1.423400877378348E+004	2.2209752E+000
3	0	1.424400877366241E+004	2.2193522E+000
3	0	1.425400877354134E+004	2.2177103E+000
3	0	1.426400877342027E+004	2.2161252E+000
3	0	1.427400877329920E+004	2.2148843E+000
3	0	1.428400877317812E+004	2.2133949E+000
3	0	1.429400877305705E+004	2.2119629E+000
3	0	1.430400877293598E+004	2.2106645E+000
3	0	1.431400877281491E+004	2.2093089E+000
3	0	1.432400877269384E+004	2.2081060E+000
3	0	1.433400877257276E+004	2.2069795E+000
3	0	1.434400877245169E+004	2.2055857E+000
3	0	1.435400877233062E+004	2.2044783E+000
3	0	1.436400877220955E+004	2.2032943E+000
3	0	1.437400877208848E+004	2.2023206E+000
3	0	1.438400877196740E+004	2.2010603E+000
3	0	1.439400877184633E+004	2.2000866E+000
3	0	1.440400877172526E+004	2.1991320E+000
3	0	1.440423677172250E+004	2.1991510E+000